 Se pb rel nc  
 atom 6.1.009-Apr-26   Improved Troullier - Martins potential
 4s(  2.00)r rc= 1.794p(  4.00)r rc= 1.794d(  0.00)r rc= 1.79          
   3  2 2862  0.729044757843E-04  0.500000000000E-02   6.00000000000     nl nls nr a b zion 
 Radial grid follows
  0.365435205613E-06  0.732702162816E-06  0.110181005330E-05  0.147276810479E-05
  0.184558559125E-05  0.222027183314E-05  0.259683619763E-05  0.297528809885E-05
  0.335563699812E-05  0.373789240418E-05  0.412206387344E-05  0.450816101020E-05
  0.489619346691E-05  0.528617094441E-05  0.567810319215E-05  0.607200000845E-05
  0.646787124077E-05  0.686572678589E-05  0.726557659023E-05  0.766743065006E-05
  0.807129901174E-05  0.847719177201E-05  0.888511907821E-05  0.929509112854E-05
  0.970711817233E-05  0.101212105103E-04  0.105373784947E-04  0.109556325298E-04
  0.113759830720E-04  0.117984406301E-04  0.122230157654E-04  0.126497190925E-04
  0.130785612790E-04  0.135095530458E-04  0.139427051679E-04  0.143780284740E-04
  0.148155338472E-04  0.152552322253E-04  0.156971346006E-04  0.161412520209E-04
  0.165875955889E-04  0.170361764634E-04  0.174870058589E-04  0.179400950462E-04
  0.183954553524E-04  0.188530981617E-04  0.193130349151E-04  0.197752771111E-04
  0.202398363058E-04  0.207067241130E-04  0.211759522052E-04  0.216475323130E-04
  0.221214762258E-04  0.225977957925E-04  0.230765029209E-04  0.235576095787E-04
  0.240411277938E-04  0.245270696539E-04  0.250154473078E-04  0.255062729649E-04
  0.259995588957E-04  0.264953174327E-04  0.269935609696E-04  0.274943019626E-04
  0.279975529303E-04  0.285033264540E-04  0.290116351780E-04  0.295224918102E-04
  0.300359091218E-04  0.305518999484E-04  0.310704771898E-04  0.315916538104E-04
  0.321154428398E-04  0.326418573725E-04  0.331709105691E-04  0.337026156559E-04
  0.342369859255E-04  0.347740347372E-04  0.353137755173E-04  0.358562217593E-04
  0.364013870244E-04  0.369492849418E-04  0.374999292089E-04  0.380533335919E-04
  0.386095119259E-04  0.391684781155E-04  0.397302461347E-04  0.402948300278E-04
  0.408622439094E-04  0.414325019650E-04  0.420056184510E-04  0.425816076953E-04
  0.431604840977E-04  0.437422621301E-04  0.443269563371E-04  0.449145813360E-04
  0.455051518175E-04  0.460986825458E-04  0.466951883592E-04  0.472946841705E-04
  0.478971849671E-04  0.485027058114E-04  0.491112618417E-04  0.497228682717E-04
  0.503375403917E-04  0.509552935685E-04  0.515761432461E-04  0.522001049456E-04
  0.528271942661E-04  0.534574268849E-04  0.540908185578E-04  0.547273851198E-04
  0.553671424849E-04  0.560101066471E-04  0.566562936806E-04  0.573057197402E-04
  0.579584010613E-04  0.586143539612E-04  0.592735948387E-04  0.599361401749E-04
  0.606020065334E-04  0.612712105608E-04  0.619437689875E-04  0.626196986272E-04
  0.632990163784E-04  0.639817392240E-04  0.646678842321E-04  0.653574685564E-04
  0.660505094364E-04  0.667470241984E-04  0.674470302551E-04  0.681505451068E-04
  0.688575863413E-04  0.695681716348E-04  0.702823187519E-04  0.710000455463E-04
  0.717213699612E-04  0.724463100298E-04  0.731748838756E-04  0.739071097131E-04
  0.746430058478E-04  0.753825906772E-04  0.761258826910E-04  0.768729004716E-04
  0.776236626943E-04  0.783781881284E-04  0.791364956369E-04  0.798986041776E-04
  0.806645328033E-04  0.814343006622E-04  0.822079269986E-04  0.829854311531E-04
  0.837668325634E-04  0.845521507645E-04  0.853414053895E-04  0.861346161698E-04
  0.869318029357E-04  0.877329856169E-04  0.885381842430E-04  0.893474189440E-04
  0.901607099508E-04  0.909780775957E-04  0.917995423130E-04  0.926251246393E-04
  0.934548452143E-04  0.942887247810E-04  0.951267841864E-04  0.959690443820E-04
  0.968155264244E-04  0.976662514758E-04  0.985212408042E-04  0.993805157844E-04
  0.100244097898E-03  0.101112008736E-03  0.101984269994E-03  0.102860903481E-03
  0.103741931111E-03  0.104627374910E-03  0.105517257015E-03  0.106411599672E-03
  0.107310425241E-03  0.108213756191E-03  0.109121615107E-03  0.110034024685E-03
  0.110951007734E-03  0.111872587180E-03  0.112798786063E-03  0.113729627537E-03
  0.114665134873E-03  0.115605331459E-03  0.116550240800E-03  0.117499886518E-03
  0.118454292356E-03  0.119413482173E-03  0.120377479949E-03  0.121346309784E-03
  0.122319995898E-03  0.123298562635E-03  0.124282034458E-03  0.125270435954E-03
  0.126263791832E-03  0.127262126928E-03  0.128265466200E-03  0.129273834730E-03
  0.130287257729E-03  0.131305760532E-03  0.132329368601E-03  0.133358107527E-03
  0.134392003028E-03  0.135431080953E-03  0.136475367276E-03  0.137524888107E-03
  0.138579669683E-03  0.139639738374E-03  0.140705120681E-03  0.141775843239E-03
  0.142851932816E-03  0.143933416315E-03  0.145020320772E-03  0.146112673361E-03
  0.147210501389E-03  0.148313832304E-03  0.149422693688E-03  0.150537113262E-03
  0.151657118888E-03  0.152782738566E-03  0.153914000435E-03  0.155050932779E-03
  0.156193564019E-03  0.157341922722E-03  0.158496037598E-03  0.159655937498E-03
  0.160821651421E-03  0.161993208509E-03  0.163170638051E-03  0.164353969483E-03
  0.165543232389E-03  0.166738456500E-03  0.167939671697E-03  0.169146908010E-03
  0.170360195621E-03  0.171579564860E-03  0.172805046214E-03  0.174036670318E-03
  0.175274467964E-03  0.176518470097E-03  0.177768707816E-03  0.179025212377E-03
  0.180288015194E-03  0.181557147837E-03  0.182832642033E-03  0.184114529671E-03
  0.185402842797E-03  0.186697613619E-03  0.187998874508E-03  0.189306657993E-03
  0.190620996771E-03  0.191941923699E-03  0.193269471801E-03  0.194603674266E-03
  0.195944564448E-03  0.197292175870E-03  0.198646542223E-03  0.200007697365E-03
  0.201375675325E-03  0.202750510304E-03  0.204132236672E-03  0.205520888972E-03
  0.206916501921E-03  0.208319110408E-03  0.209728749500E-03  0.211145454437E-03
  0.212569260638E-03  0.214000203696E-03  0.215438319387E-03  0.216883643662E-03
  0.218336212656E-03  0.219796062682E-03  0.221263230236E-03  0.222737751999E-03
  0.224219664833E-03  0.225709005785E-03  0.227205812091E-03  0.228710121169E-03
  0.230221970627E-03  0.231741398263E-03  0.233268442062E-03  0.234803140199E-03
  0.236345531043E-03  0.237895653153E-03  0.239453545282E-03  0.241019246378E-03
  0.242592795584E-03  0.244174232238E-03  0.245763595876E-03  0.247360926232E-03
  0.248966263240E-03  0.250579647034E-03  0.252201117947E-03  0.253830716517E-03
  0.255468483484E-03  0.257114459792E-03  0.258768686590E-03  0.260431205235E-03
  0.262102057290E-03  0.263781284525E-03  0.265468928921E-03  0.267165032671E-03
  0.268869638175E-03  0.270582788051E-03  0.272304525126E-03  0.274034892444E-03
  0.275773933264E-03  0.277521691062E-03  0.279278209533E-03  0.281043532590E-03
  0.282817704365E-03  0.284600769213E-03  0.286392771711E-03  0.288193756659E-03
  0.290003769081E-03  0.291822854229E-03  0.293651057578E-03  0.295488424836E-03
  0.297335001934E-03  0.299190835039E-03  0.301055970547E-03  0.302930455084E-03
  0.304814335515E-03  0.306707658936E-03  0.308610472679E-03  0.310522824317E-03
  0.312444761657E-03  0.314376332747E-03  0.316317585879E-03  0.318268569582E-03
  0.320229332631E-03  0.322199924046E-03  0.324180393092E-03  0.326170789280E-03
  0.328171162371E-03  0.330181562373E-03  0.332202039548E-03  0.334232644406E-03
  0.336273427714E-03  0.338324440490E-03  0.340385734011E-03  0.342457359809E-03
  0.344539369674E-03  0.346631815657E-03  0.348734750069E-03  0.350848225484E-03
  0.352972294738E-03  0.355107010934E-03  0.357252427439E-03  0.359408597889E-03
  0.361575576189E-03  0.363753416512E-03  0.365942173306E-03  0.368141901289E-03
  0.370352655454E-03  0.372574491070E-03  0.374807463684E-03  0.377051629119E-03
  0.379307043481E-03  0.381573763154E-03  0.383851844807E-03  0.386141345392E-03
  0.388442322146E-03  0.390754832594E-03  0.393078934549E-03  0.395414686113E-03
  0.397762145681E-03  0.400121371939E-03  0.402492423868E-03  0.404875360744E-03
  0.407270242140E-03  0.409677127930E-03  0.412096078285E-03  0.414527153679E-03
  0.416970414889E-03  0.419425922997E-03  0.421893739391E-03  0.424373925766E-03
  0.426866544127E-03  0.429371656789E-03  0.431889326380E-03  0.434419615844E-03
  0.436962588435E-03  0.439518307730E-03  0.442086837621E-03  0.444668242322E-03
  0.447262586368E-03  0.449869934617E-03  0.452490352254E-03  0.455123904789E-03
  0.457770658061E-03  0.460430678239E-03  0.463104031824E-03  0.465790785649E-03
  0.468491006884E-03  0.471204763034E-03  0.473932121943E-03  0.476673151796E-03
  0.479427921118E-03  0.482196498779E-03  0.484978953993E-03  0.487775356322E-03
  0.490585775676E-03  0.493410282315E-03  0.496248946853E-03  0.499101840256E-03
  0.501969033847E-03  0.504850599306E-03  0.507746608671E-03  0.510657134344E-03
  0.513582249088E-03  0.516522026030E-03  0.519476538665E-03  0.522445860857E-03
  0.525430066838E-03  0.528429231214E-03  0.531443428964E-03  0.534472735443E-03
  0.537517226383E-03  0.540576977898E-03  0.543652066482E-03  0.546742569011E-03
  0.549848562749E-03  0.552970125344E-03  0.556107334838E-03  0.559260269660E-03
  0.562429008633E-03  0.565613630976E-03  0.568814216305E-03  0.572030844635E-03
  0.575263596382E-03  0.578512552364E-03  0.581777793806E-03  0.585059402338E-03
  0.588357460002E-03  0.591672049249E-03  0.595003252943E-03  0.598351154365E-03
  0.601715837214E-03  0.605097385605E-03  0.608495884078E-03  0.611911417595E-03
  0.615344071545E-03  0.618793931745E-03  0.622261084442E-03  0.625745616313E-03
  0.629247614473E-03  0.632767166472E-03  0.636304360299E-03  0.639859284383E-03
  0.643432027599E-03  0.647022679264E-03  0.650631329146E-03  0.654258067461E-03
  0.657902984877E-03  0.661566172518E-03  0.665247721963E-03  0.668947725252E-03
  0.672666274884E-03  0.676403463824E-03  0.680159385501E-03  0.683934133815E-03
  0.687727803132E-03  0.691540488297E-03  0.695372284625E-03  0.699223287912E-03
  0.703093594434E-03  0.706983300948E-03  0.710892504697E-03  0.714821303411E-03
  0.718769795311E-03  0.722738079108E-03  0.726726254011E-03  0.730734419724E-03
  0.734762676451E-03  0.738811124899E-03  0.742879866280E-03  0.746969002311E-03
  0.751078635222E-03  0.755208867754E-03  0.759359803162E-03  0.763531545221E-03
  0.767724198224E-03  0.771937866987E-03  0.776172656853E-03  0.780428673692E-03
  0.784706023904E-03  0.789004814423E-03  0.793325152719E-03  0.797667146801E-03
  0.802030905219E-03  0.806416537066E-03  0.810824151985E-03  0.815253860166E-03
  0.819705772352E-03  0.824179999840E-03  0.828676654486E-03  0.833195848708E-03
  0.837737695486E-03  0.842302308365E-03  0.846889801461E-03  0.851500289462E-03
  0.856133887630E-03  0.860790711806E-03  0.865470878410E-03  0.870174504447E-03
  0.874901707507E-03  0.879652605772E-03  0.884427318013E-03  0.889225963599E-03
  0.894048662496E-03  0.898895535271E-03  0.903766703098E-03  0.908662287755E-03
  0.913582411632E-03  0.918527197733E-03  0.923496769677E-03  0.928491251704E-03
  0.933510768676E-03  0.938555446083E-03  0.943625410039E-03  0.948720787296E-03
  0.953841705238E-03  0.958988291888E-03  0.964160675910E-03  0.969358986616E-03
  0.974583353962E-03  0.979833908558E-03  0.985110781670E-03  0.990414105217E-03
  0.995744011785E-03  0.100110063462E-02  0.100648410764E-02  0.101189456543E-02
  0.101733214325E-02  0.102279697705E-02  0.102828920343E-02  0.103380895972E-02
  0.103935638390E-02  0.104493161466E-02  0.105053479138E-02  0.105616605414E-02
  0.106182554373E-02  0.106751340162E-02  0.107322977002E-02  0.107897479183E-02
  0.108474861069E-02  0.109055137093E-02  0.109638321763E-02  0.110224429659E-02
  0.110813475432E-02  0.111405473810E-02  0.112000439592E-02  0.112598387652E-02
  0.113199332939E-02  0.113803290478E-02  0.114410275366E-02  0.115020302778E-02
  0.115633387965E-02  0.116249546255E-02  0.116868793051E-02  0.117491143835E-02
  0.118116614165E-02  0.118745219678E-02  0.119376976089E-02  0.120011899192E-02
  0.120650004861E-02  0.121291309047E-02  0.121935827785E-02  0.122583577185E-02
  0.123234573444E-02  0.123888832834E-02  0.124546371714E-02  0.125207206520E-02
  0.125871353775E-02  0.126538830082E-02  0.127209652128E-02  0.127883836683E-02
  0.128561400603E-02  0.129242360826E-02  0.129926734376E-02  0.130614538363E-02
  0.131305789981E-02  0.132000506513E-02  0.132698705326E-02  0.133400403875E-02
  0.134105619703E-02  0.134814370439E-02  0.135526673804E-02  0.136242547604E-02
  0.136962009736E-02  0.137685078188E-02  0.138411771035E-02  0.139142106445E-02
  0.139876102676E-02  0.140613778079E-02  0.141355151095E-02  0.142100240260E-02
  0.142849064198E-02  0.143601641633E-02  0.144357991378E-02  0.145118132341E-02
  0.145882083527E-02  0.146649864035E-02  0.147421493058E-02  0.148196989887E-02
  0.148976373911E-02  0.149759664613E-02  0.150546881577E-02  0.151338044481E-02
  0.152133173107E-02  0.152932287331E-02  0.153735407132E-02  0.154542552587E-02
  0.155353743877E-02  0.156169001279E-02  0.156988345176E-02  0.157811796051E-02
  0.158639374492E-02  0.159471101186E-02  0.160306996928E-02  0.161147082614E-02
  0.161991379248E-02  0.162839907936E-02  0.163692689892E-02  0.164549746435E-02
  0.165411098992E-02  0.166276769096E-02  0.167146778391E-02  0.168021148624E-02
  0.168899901657E-02  0.169783059458E-02  0.170670644106E-02  0.171562677790E-02
  0.172459182812E-02  0.173360181583E-02  0.174265696630E-02  0.175175750590E-02
  0.176090366215E-02  0.177009566369E-02  0.177933374033E-02  0.178861812303E-02
  0.179794904389E-02  0.180732673618E-02  0.181675143435E-02  0.182622337401E-02
  0.183574279198E-02  0.184530992622E-02  0.185492501592E-02  0.186458830146E-02
  0.187430002442E-02  0.188406042760E-02  0.189386975500E-02  0.190372825186E-02
  0.191363616463E-02  0.192359374103E-02  0.193360122999E-02  0.194365888169E-02
  0.195376694759E-02  0.196392568037E-02  0.197413533402E-02  0.198439616376E-02
  0.199470842613E-02  0.200507237893E-02  0.201548828126E-02  0.202595639352E-02
  0.203647697741E-02  0.204705029594E-02  0.205767661346E-02  0.206835619561E-02
  0.207908930939E-02  0.208987622313E-02  0.210071720650E-02  0.211161253052E-02
  0.212256246758E-02  0.213356729143E-02  0.214462727719E-02  0.215574270136E-02
  0.216691384182E-02  0.217814097786E-02  0.218942439015E-02  0.220076436078E-02
  0.221216117325E-02  0.222361511248E-02  0.223512646483E-02  0.224669551806E-02
  0.225832256141E-02  0.227000788557E-02  0.228175178265E-02  0.229355454626E-02
  0.230541647147E-02  0.231733785483E-02  0.232931899437E-02  0.234136018962E-02
  0.235346174162E-02  0.236562395290E-02  0.237784712751E-02  0.239013157104E-02
  0.240247759061E-02  0.241488549485E-02  0.242735559397E-02  0.243988819973E-02
  0.245248362543E-02  0.246514218596E-02  0.247786419780E-02  0.249064997898E-02
  0.250349984916E-02  0.251641412958E-02  0.252939314310E-02  0.254243721420E-02
  0.255554666897E-02  0.256872183516E-02  0.258196304215E-02  0.259527062096E-02
  0.260864490429E-02  0.262208622650E-02  0.263559492361E-02  0.264917133334E-02
  0.266281579512E-02  0.267652865004E-02  0.269031024094E-02  0.270416091234E-02
  0.271808101053E-02  0.273207088350E-02  0.274613088100E-02  0.276026135452E-02
  0.277446265735E-02  0.278873514450E-02  0.280307917278E-02  0.281749510081E-02
  0.283198328898E-02  0.284654409950E-02  0.286117789638E-02  0.287588504547E-02
  0.289066591446E-02  0.290552087286E-02  0.292045029205E-02  0.293545454526E-02
  0.295053400761E-02  0.296568905607E-02  0.298092006953E-02  0.299622742877E-02
  0.301161151646E-02  0.302707271721E-02  0.304261141756E-02  0.305822800596E-02
  0.307392287284E-02  0.308969641056E-02  0.310554901348E-02  0.312148107789E-02
  0.313749300211E-02  0.315358518644E-02  0.316975803317E-02  0.318601194664E-02
  0.320234733318E-02  0.321876460120E-02  0.323526416111E-02  0.325184642541E-02
  0.326851180865E-02  0.328526072748E-02  0.330209360061E-02  0.331901084886E-02
  0.333601289518E-02  0.335310016461E-02  0.337027308434E-02  0.338753208368E-02
  0.340487759412E-02  0.342231004929E-02  0.343982988500E-02  0.345743753926E-02
  0.347513345225E-02  0.349291806637E-02  0.351079182625E-02  0.352875517872E-02
  0.354680857286E-02  0.356495246002E-02  0.358318729380E-02  0.360151353006E-02
  0.361993162696E-02  0.363844204495E-02  0.365704524680E-02  0.367574169759E-02
  0.369453186473E-02  0.371341621797E-02  0.373239522943E-02  0.375146937358E-02
  0.377063912728E-02  0.378990496976E-02  0.380926738268E-02  0.382872685010E-02
  0.384828385851E-02  0.386793889683E-02  0.388769245644E-02  0.390754503117E-02
  0.392749711736E-02  0.394754921379E-02  0.396770182177E-02  0.398795544512E-02
  0.400831059018E-02  0.402876776583E-02  0.404932748350E-02  0.406999025719E-02
  0.409075660345E-02  0.411162704147E-02  0.413260209298E-02  0.415368228238E-02
  0.417486813667E-02  0.419616018550E-02  0.421755896116E-02  0.423906499864E-02
  0.426067883557E-02  0.428240101232E-02  0.430423207193E-02  0.432617256018E-02
  0.434822302558E-02  0.437038401940E-02  0.439265609567E-02  0.441503981118E-02
  0.443753572554E-02  0.446014440113E-02  0.448286640318E-02  0.450570229975E-02
  0.452865266171E-02  0.455171806285E-02  0.457489907979E-02  0.459819629207E-02
  0.462161028210E-02  0.464514163525E-02  0.466879093980E-02  0.469255878698E-02
  0.471644577099E-02  0.474045248900E-02  0.476457954119E-02  0.478882753073E-02
  0.481319706383E-02  0.483768874972E-02  0.486230320069E-02  0.488704103212E-02
  0.491190286244E-02  0.493688931320E-02  0.496200100907E-02  0.498723857783E-02
  0.501260265044E-02  0.503809386099E-02  0.506371284677E-02  0.508946024825E-02
  0.511533670911E-02  0.514134287627E-02  0.516747939989E-02  0.519374693338E-02
  0.522014613342E-02  0.524667766001E-02  0.527334217643E-02  0.530014034930E-02
  0.532707284856E-02  0.535414034754E-02  0.538134352292E-02  0.540868305479E-02
  0.543615962663E-02  0.546377392536E-02  0.549152664133E-02  0.551941846838E-02
  0.554745010379E-02  0.557562224836E-02  0.560393560639E-02  0.563239088571E-02
  0.566098879772E-02  0.568973005736E-02  0.571861538316E-02  0.574764549726E-02
  0.577682112542E-02  0.580614299701E-02  0.583561184510E-02  0.586522840641E-02
  0.589499342135E-02  0.592490763405E-02  0.595497179236E-02  0.598518664789E-02
  0.601555295601E-02  0.604607147589E-02  0.607674297049E-02  0.610756820659E-02
  0.613854795483E-02  0.616968298971E-02  0.620097408960E-02  0.623242203677E-02
  0.626402761744E-02  0.629579162175E-02  0.632771484378E-02  0.635979808163E-02
  0.639204213739E-02  0.642444781714E-02  0.645701593104E-02  0.648974729329E-02
  0.652264272217E-02  0.655570304008E-02  0.658892907352E-02  0.662232165315E-02
  0.665588161378E-02  0.668960979441E-02  0.672350703825E-02  0.675757419274E-02
  0.679181210954E-02  0.682622164462E-02  0.686080365821E-02  0.689555901487E-02
  0.693048858347E-02  0.696559323727E-02  0.700087385387E-02  0.703633131531E-02
  0.707196650800E-02  0.710778032285E-02  0.714377365518E-02  0.717994740485E-02
  0.721630247619E-02  0.725283977809E-02  0.728956022397E-02  0.732646473186E-02
  0.736355422436E-02  0.740082962871E-02  0.743829187681E-02  0.747594190520E-02
  0.751378065515E-02  0.755180907262E-02  0.759002810833E-02  0.762843871775E-02
  0.766704186116E-02  0.770583850362E-02  0.774482961507E-02  0.778401617027E-02
  0.782339914890E-02  0.786297953553E-02  0.790275831967E-02  0.794273649580E-02
  0.798291506338E-02  0.802329502686E-02  0.806387739574E-02  0.810466318460E-02
  0.814565341308E-02  0.818684910593E-02  0.822825129305E-02  0.826986100950E-02
  0.831167929552E-02  0.835370719657E-02  0.839594576336E-02  0.843839605183E-02
  0.848105912327E-02  0.852393604424E-02  0.856702788667E-02  0.861033572786E-02
  0.865386065051E-02  0.869760374274E-02  0.874156609813E-02  0.878574881575E-02
  0.883015300016E-02  0.887477976147E-02  0.891963021535E-02  0.896470548307E-02
  0.901000669151E-02  0.905553497320E-02  0.910129146635E-02  0.914727731488E-02
  0.919349366843E-02  0.923994168242E-02  0.928662251805E-02  0.933353734234E-02
